Time (s),MPC Tt,MPC wt,MPC Ts,Reference Tt,Reference wt
0.0,25.964269626273794,0.007994903916745667,12.029603699957837,23.0,0.008
0.5,25.909426172728015,0.00798979860703226,12.00742942926365,23.0,0.008
1.0,25.860342681931865,0.007984707480803481,12.009865891644587,23.03749609387207,0.008006249837240855
1.5,25.806397624002788,0.007979655943878828,12.007752974658986,23.074968753906017,0.008012498697957357
2.0,25.750840217444285,0.0079746746316723,12.007022796953263,23.112394560909113,0.00801874560577773
2.5,25.697000671875873,0.007969664494975997,12.007778554120446,23.149750124970243,0.00802498958463534
3.0,25.643953989758714,0.007964731806465952,12.008100739882645,23.18701210007784,0.008031229658921191
3.5,25.58906569208734,0.007959796809367554,12.007299689982876,23.224157198710397,0.008037464853636371
4.0,25.536057253729467,0.007954899004619438,12.008106191049254,23.261162206390395,0.008043694194544393
4.5,25.4864759635722,0.007950035304352121,12.009598240444143,23.29800399619259,0.008049916708323415
5.0,25.43868555189813,0.007945179283125249,12.010389574997436,23.334659543197617,0.008056131422718315
5.5,25.383802771996443,0.007940344244373534,12.00727862633496,23.371105938881783,0.008062337366692615
6.0,25.327839782684762,0.007935560069009018,12.006776084422528,23.40732040543417,0.008068533570580193
6.5,25.274344687561427,0.007930774686242674,12.007857990797733,23.44328030999201,0.0080747190662368
7.0,25.21991105863071,0.00792600597554112,12.00744163762917,23.478963178785502,0.008080892887191323
7.5,25.174081655349827,0.007921262884768654,12.011225177357014,23.514346711183176,0.008087054068796798
8.0,25.121216439746206,0.007916571757138998,12.008118540559014,23.54940879362907,0.008093201648381135
8.5,25.069122028763847,0.007911892558898485,12.008445671331557,23.584127513462974,0.00809933466539753
9.0,25.014564875187485,0.007907236151413163,12.007349296985351,23.618481172615137,0.008105452161574553
9.5,24.962173545591497,0.007902618272582268,12.008289873437311,23.652448301166846,0.008111553181065873
10.0,24.911203328583607,0.007898047563451973,12.008906192911294,23.686007670768433,0.008117636770599604
10.5,24.861299007408114,0.007893496761427159,12.00937539676849,23.719138307906306,0.008123701979627262
11.0,24.814269570315943,0.007888955700552418,12.010653966036791,23.751819507010698,0.008129747860472273
11.5,24.763425111046683,0.007884432374817073,12.008957443304013,23.78403084339599,0.008135773468478057
12.0,24.71627052870347,0.007888573357510253,12.01055014147548,23.815752186025463,0.00814177786215562
12.5,24.66257282906076,0.00789403289122759,12.007582315901173,23.846963710092552,0.00814776010333067
13.0,24.614340249759344,0.00789946527869475,12.009957845475078,23.877645909410692,0.008153719257290191
13.5,24.561418250005435,0.00790486235316323,12.007815489990517,23.90777960860406,0.008159654392928501
14.0,24.51147569737327,0.00791026579455639,12.00907388761543,23.93734597509155,0.00816556458289273
14.5,24.458024621894833,0.007915629845482794,12.007450884476437,23.966326530856538,0.008171448903727726
15.0,24.40811605398677,0.007920941696535132,12.008987105495136,23.994703163995023,0.008177306436020325
15.5,24.36216175528233,0.007926278283083283,12.010697188854225,24.022458140035003,0.008183136264543023
16.0,24.315618892334623,0.007931585306420918,12.010060618552382,24.049574113019904,0.008188937478396979
16.5,24.270355576225413,0.007936779673173097,12.006518752603121,24.076034136349286,0.008194709171154325
17.0,24.246526474215695,0.007941887337609059,12.009474183436978,24.10182167336987,0.008200450440999815
17.5,24.23108094195153,0.007946930074012619,12.007254411037863,24.12692060771044,0.008206160390871712
18.0,24.2246656982624,0.007951909850318635,12.005821556158853,24.151315253354042,0.008211838128601968
18.5,24.233357693604923,0.00795687369732909,17.6020768300705,24.174990364441225,0.008217482767055615
19.0,24.244212001848016,0.007961814596796669,20.051862080706066,24.197931144798222,0.008223093424269376
19.5,24.257467259190864,0.007966731544853483,21.467381106095917,24.22012325718406,0.008228669223589478
20.0,24.273004294755115,0.00797161427420905,22.045615891428803,24.241552832250886,0.008234209293808619
20.5,24.29459268050321,0.007976537840924924,22.17525662045126,24.262206477211844,0.008239712769302101
21.0,24.309711308005756,0.007981401998648505,22.056018886650428,24.282071284211142,0.008245178790163074
21.5,24.335445965086485,0.007986257698736178,21.743390584233236,24.301134838391025,0.008250606502336898
22.0,24.360107842993717,0.00799113378919046,21.357919987558688,24.319385225650684,0.008255995057754591
22.5,24.38285228249896,0.007996047315855742,13.150863626028713,24.336811040092154,0.00826134361446533
23.0,24.404514102947623,0.008000914484344802,12.001120804686407,24.353401391148644,0.008266651336768011
23.5,24.41845531862158,0.008005787442257165,12.000963627716317,24.36914591039078,0.008271917395341822
24.0,24.432903338661045,0.008010672569348055,12.001144038418767,24.38403475800655,0.008277140967375826
24.5,24.445311652039507,0.008015521295098095,12.001122218829712,24.39805862895084,0.008282321236697518
25.0,24.463582918761674,0.008020390491577921,12.001512748504071,24.411208758760807,0.008287457393900358
25.5,24.479749469314317,0.00802524129923014,12.001557873145202,24.42347692903338,0.008292548636470231
26.0,24.496867579605713,0.008030089193358169,12.00194118633147,24.43485547256148,0.008297594168910846
26.5,24.508964945624335,0.008034966138291206,12.001937659094008,24.44533727812579,0.00830259320286802
27.0,24.52439852231321,0.008039794032729685,12.002634983433895,24.45491579493903,0.00830754495725287
27.5,24.53491056897652,0.008044638714869615,12.00256991333261,24.46358503673999,0.00831244865836385
28.0,24.546755140546892,0.008049467009200433,12.003137896730028,24.471339585534732,0.008317303540007636
28.5,24.55136314155681,0.008054271959892383,12.002583303164945,24.47817459498269,0.008322108843618847
29.0,24.559193064663408,0.0080590995442378,12.003244502196385,24.484085793425443,0.00832686381837857
29.5,24.570070778700252,0.008063886088502883,12.003996888918337,24.48906948655638,0.008331567721331675
30.0,24.57746232565357,0.008068691900460752,12.003909295707787,24.493122559729528,0.008336219817502894
30.5,24.577342284233083,0.008073478657050897,12.003059028701268,24.49624247990608,0.008340819380011667
31.0,24.577051435457573,0.008078226907583204,12.003200949350202,24.498427297237487,0.008345365690185708
31.5,24.57967610986053,0.008083002204054349,12.003785415331992,24.499675646284036,0.008349858037673302
32.0,24.585639121116046,0.008087766353797087,12.004583203346575,24.499986746868206,0.008354295720554294
32.5,24.582005168948335,0.008092516902854341,12.003136853688714,24.499360404562257,0.008358678045449762
33.0,24.579117257014342,0.00809724387318892,12.003436472480717,24.497797010809748,0.008363004327630357
33.5,24.58471141293936,0.008101951037135372,12.005245829098987,24.495297542680877,0.00836727389112329
34.0,24.579086039743895,0.00810667573293986,12.003386034692207,24.49186356226187,0.00837148606881795
34.5,24.57758783493084,0.00811135175157393,12.004497297071525,24.4874972156787,0.008375640202570147
35.0,24.58061083848271,0.008116021889877386,12.005824339116812,24.482201231755862,0.008379735643304928
35.5,24.57273872078369,0.008120677089091324,12.003933508178815,24.475978920310904,0.008383771751118013
36.0,24.57205766328416,0.00812532108672185,12.00596997886551,24.46883417008594,0.00838774789537577
36.5,24.563051001137772,0.00812990737307895,12.004467969970198,24.460771446317292,0.008391663454813741
37.0,24.556147525988898,0.008134487640557514,12.00531345680945,24.451795787944857,0.008395517817633738
37.5,24.547521145455505,0.008139042469216682,12.005207022465749,24.44191280446295,0.008399310381599407
38.0,24.544400911251575,0.00814361593042766,12.006984872430795,24.43112867241454,0.008403040554130346
38.5,24.53047698237592,0.008148140549642772,12.004639620446204,24.41945013153112,0.008406707752394688
39.0,24.5174445788362,0.008152611627502963,12.005166421726692,24.406884480520592,0.00841031140340016
39.5,24.502769438625677,0.008157101293341283,12.004894291204485,24.393439572505805,0.00841385094408363
40.0,24.48886257554276,0.008161570984361238,12.005240462940243,24.379123810116617,0.008417325821399061
40.5,24.47320942604622,0.008166006995432068,12.004890798716211,24.36394614023852,0.008420735492403948
41.0,24.458493107049655,0.008170429665724335,12.005288833296559,24.347916048421144,0.00842407942434413
41.5,24.446580810024923,0.008174807868896265,12.006321992479597,24.331043552950064,0.008427357094737046
42.0,24.438108624020916,0.008179175308158298,12.007781147344529,24.313339198585727,0.008430567991453366
42.5,24.42140686083556,0.008183529341091645,12.005993080580362,24.29481404997331,0.00843371161279701
43.0,24.40020314788857,0.008187828611732945,12.005093232356407,24.275479684727678,0.008436787467583536
43.5,24.38560238605066,0.008192114574313077,12.00748328028447,24.255348186197747,0.008439795075216895
44.0,24.368866350024096,0.00819638708498149,12.007275513045183,24.234432135914787,0.008442733965764511
44.5,24.354304616261842,0.008200624699869718,12.008553137994875,24.212744605729384,0.008445603680030719
45.0,24.33382546249769,0.008204768443563491,12.007268640878491,24.19029914964194,0.008448403769628498
45.5,24.31098027051438,0.00820893290066195,12.006954746384013,24.167109795331882,0.008451133797049547
46.0,24.28463898655004,0.008213058930124004,12.006065055888612,24.143191035390803,0.008453793335732639
46.5,24.257425805440686,0.008217148620290016,12.005874947371069,24.11855781826508,0.008456381970130262
47.0,24.234735595896044,0.008221236244434334,12.007496483444212,24.093225538913572,0.008458899295773557
47.5,24.211518221838183,0.008225271783141063,12.00750922555264,24.067210029186267,0.008461344919335517
48.0,24.192474484946427,0.008229309881540628,12.009324588428031,24.04052754792991,0.008463718458692433
48.5,24.164029345125204,0.008233251494906266,12.006453870678046,24.013194770826725,0.008466019542983613
49.0,24.142029409288295,0.008237200212295041,12.009160237216921,23.98522877997269,0.008468247812669315
49.5,24.114082299832695,0.008241103727005095,12.00742438154395,23.956647053201756,0.008470402919586936
50.0,24.0902043504857,0.00824496016489522,12.009342003555787,23.927467453162773,0.008472484527005403
50.5,24.065400756254867,0.008248779022795036,12.009498578091147,23.897708216155934,0.008474492309677794
51.0,24.032389211288145,0.008252539644368858,12.006816940687687,23.86738794073566,0.008476425953892149
51.5,23.998755659813504,0.008256277689771318,12.006748527462275,23.836525576087126,0.008478285157520494
52.0,23.96783207321558,0.008259996648647959,12.00783254696462,23.80514041018362,0.008480069630066044
52.5,23.940172614143556,0.008263728972631694,12.009188761801134,23.773252057732197,0.008481779092708596
53.0,23.908783644836095,0.008267378142151819,12.007973323660876,23.740880447915135,0.00848341327834809
53.5,23.879796927151737,0.008271031530072642,12.00915227622397,23.708045811934824,0.008484971931646344
54.0,23.84998809101097,0.008274646490243858,12.009158095594202,23.67476867036994,0.00848645480906695
54.5,23.82116606097152,0.008278202263349198,12.009954870515942,23.641069820350744,0.00848786167891333
55.0,23.792105226287372,0.008281711714787211,12.010340755170631,23.606970322561555,0.00848919232136493
55.5,23.761026630389427,0.008285186944649381,12.01003230569247,23.572491488078498,0.008490446528511579
56.0,23.721761265013832,0.00828861363150411,12.007009514535982,23.537654865050794,0.008491624104385956
56.5,23.684340720093275,0.008291991458286218,12.007825888528327,23.502482225233855,0.00849272486499423
57.0,23.65139440175437,0.008295400345523389,12.009644783390183,23.466995550382652,0.008493748638344796
57.5,23.61493114278792,0.008298777819610364,12.008229128323253,23.431217018513816,0.008494695264475148
58.0,23.583794508038036,0.00830213222712927,12.010540009935585,23.395168990045132,0.00849556459547688
58.5,23.545300582837033,0.008305414468940998,12.007635384656776,23.35887399382097,0.008496356495518794
59.0,23.507150732347657,0.008308686474278735,12.007788740940256,23.32235471303253,0.008497070840868117
59.5,23.476900119479126,0.008311959629048666,12.01115072591322,23.28563397104154,0.008497707519909843
60.0,23.44022232198154,0.008315180041997806,12.008649422713962,23.248734717116438,0.008498266433164167
60.5,23.409369112885468,0.008318356280079004,12.011364424774827,23.2116800120898,0.008498747493302027
61.0,23.37142697434017,0.008321518721210357,12.00861427154832,23.17449301394609,0.008499150625158759
61.5,23.332516548749126,0.008324630333331027,12.00832378451419,23.137196963348654,0.008499475765745829
62.0,23.294380116269018,0.008327706893308645,12.008648950518678,23.099815169115082,0.008499722864260683
62.5,23.25467926691162,0.008330771476170064,12.0078726359609,23.062370993649935,0.00849989188209468
63.0,23.215714042894387,0.008333798254062965,12.008026971198394,23.02488783834402,0.008499982792839124
63.5,23.184075857190212,0.008336815610719923,12.01109705303021,22.987389128949275,0.008499995582289402
64.0,23.152343635130414,0.008339809900045632,12.011225026214113,22.949898300938436,0.008499930248447184
64.5,23.11432442625749,0.008342793383685763,12.008726013662235,22.91243878485863,0.008499786801520753
65.0,23.078198737744838,0.008345750500974794,12.009685238492077,22.875033991688046,0.008499565263923398
65.5,23.044887587438016,0.008348648966589697,12.011068773916039,22.837707298204837,0.008499265670269917
66.0,23.004110519876733,0.008351502506055567,12.007883606283254,22.800482032377396,0.008498888067371209
66.5,22.966548672815144,0.008354326197462266,12.009232730837615,22.763381458785126,0.00849843251422696
67.0,22.932863492237217,0.008357172512642801,12.010866620518264,22.726428764078854,0.008497899082016421
67.5,22.898295924317626,0.008359975014580702,12.01052174761207,22.689647042489902,0.00849728785408729
68.0,22.86128254866351,0.008362779550859583,12.009471754027476,22.653059281396967,0.008496598925942688
68.5,22.822340496561218,0.008365521372693974,12.00856551777493,22.61668834695975,0.008495832405226235
69.0,22.785523288524747,0.00836826120158763,12.00933697094941,22.580556969828354,0.008494988411705233
69.5,22.751095949563442,0.008371014643069488,12.01023146942612,22.544687730937355,0.008494067077251954
70.0,22.713615663147927,0.008373748416198304,12.00874300715108,22.509103047393467,0.00849306854582303
70.5,22.67483703139017,0.008376477230835422,12.007935982044597,22.47382515846557,0.008491992973436968
71.0,22.641688047407456,0.008379184666580643,12.01017128429367,22.438876111685904,0.008490840528149763
71.5,22.60325033216094,0.008381896418830522,12.00760148591477,22.40427774907106,0.008489611390028648
72.0,22.570460478425773,0.008384622450563541,12.009818149497598,22.370051693471453,0.008488305751123951
72.5,22.537228255259095,0.008387331299990444,12.009448113876996,22.33621933505772,0.008486923815439099
73.0,22.50448751782896,0.0083899975290679,12.009542480913623,22.302801817952588,0.008485465798898726
73.5,22.472880353317787,0.008392640080421336,12.009947119410889,22.26982002701645,0.008483931929314953
74.0,22.437724122844568,0.008395307465110718,12.008256256234581,22.237294574795044,0.00848232244635178
74.5,22.404437959312396,0.008397950226160338,12.008870345954632,22.20524578863726,0.00848063760148765
75.0,22.370688181497787,0.008400571366507955,12.008412115056727,22.17369369799121,0.008478877657976142
75.5,22.342718044335882,0.008403241529510282,12.010675754627412,22.142658021886483,0.008477042890804847
76.0,22.310771413206137,0.00840587694948928,12.00879700130905,22.11215815661039,0.008475133586652406
76.5,22.27999692266209,0.008408531475233481,12.009102124795525,22.08221316358592,0.008473150043843707
77.0,22.248303827080477,0.008411163466224487,12.008470701267784,22.052841757458957,0.008471092572303279
77.5,22.217498287861524,0.008413798431938851,12.00855552913662,22.02406229440225,0.008468961493506864
78.0,22.18641912053355,0.008416412311117435,12.008103943114822,21.995892760643397,0.008466757140431188
78.5,22.157476320793826,0.00841903271545613,12.008650458616321,21.968350761224038,0.008464479857501934
79.0,22.13152277223582,0.008421699366903459,12.009587271517836,21.941453508997284,0.00846213000053993
79.5,22.10271646802098,0.008423339981450144,12.008110985787303,21.915217813870232,0.008459707936705538
80.0,22.07463853583149,0.008421270226950174,12.008117788187327,21.889660072298327,0.008457214044441313
80.5,22.04404364661438,0.008419087049297039,12.006682257049308,21.86479625703811,0.008454648713412841
81.0,22.019536237223626,0.00841738679539676,12.008761032157496,21.840641907164763,0.00845201234444788
81.5,21.99644122346865,0.0084146211416766,12.008995221603335,21.817212118360708,0.008449305349473715
82.0,21.97491846949062,0.00841175037655026,12.009386920051401,21.794521533481266,0.008446528151452803
82.5,21.95004182384401,0.00840874346785919,12.007793517037213,21.772584333403383,0.008443681184316688
83.0,21.933088253989368,0.008406431546898852,12.010789224811049,21.751414228163018,0.00844076489289819
83.5,21.912000787043294,0.008402726467263654,12.009014273210276,21.73102444838683,0.00843777973286191
84.0,21.89547789486435,0.008399889747190546,12.010775017766628,21.711427737023463,0.00843472617063303
84.5,21.874102658314566,0.008396334375246596,12.008738714769448,21.692636341379618,0.008431604683324437
85.0,21.857141200514867,0.008393759407590195,12.010363393043887,21.674662005465887,0.008428415758662173
85.5,21.840274571595597,0.008390407304267608,12.010263910649527,21.657515962657126,0.008425159894909226
86.0,21.824612820484813,0.00838716997625822,12.010607500867698,21.64120892867196,0.008421837600787687
86.5,21.799391928815222,0.008383841939338506,12.00653576215629,21.625751094875817,0.00841844939539925
87.0,21.779260410842348,0.008382246032943973,12.008037956027346,21.611152121911644,0.008414995808144114
87.5,21.7575136770106,0.008379727349318978,12.006772270866156,21.597421133662326,0.008411477378638264
88.0,21.73670463693546,0.008377658075307586,12.006388482841967,21.584566711548558,0.00840789465662915
88.5,21.722242525912357,0.00837536156117479,12.008000131911524,21.572596889165727,0.008404248201909796
89.0,21.712931794358024,0.008372052063766098,12.009275043582061,21.56151914726319,0.008400538584231334
89.5,21.703132116492668,0.008367938358966943,12.008715094050093,21.55134040906904,0.008396766383213981
90.0,21.6869209204713,0.008364177873000438,12.006104939637206,21.54206703596332,0.008392932188256468
90.5,21.674842770830924,0.008361784919148157,12.007082103748546,21.533704823502354,0.00838903659844396
91.0,21.661203251544368,0.008358596924776656,12.006029151389741,21.52625899779673,0.008385080222454438
91.5,21.65550740598135,0.008355916805764677,12.008147024855038,21.519734212245144,0.0083810636784636
92.0,21.64816620900486,0.008351748525964197,12.007199336621449,21.514134544626174,0.008376987594048277
92.5,21.63648398358902,0.008348107544836524,12.005411959294582,21.509463494549802,0.00837285260608836
93.0,21.626524887738505,0.00834544611265052,12.005441620375112,21.505723981270283,0.008368659360667309
93.5,21.617479559425504,0.008342622953282188,12.00514252090367,21.50291834186168,0.00836440851297119
94.0,21.613999772578435,0.008339644663895484,12.006186784689195,21.501048329757307,0.008360100727186306
94.5,21.616603952077757,0.008335793553815288,12.007431077279698,21.500115113653848,0.008355736676395423
95.0,21.61840566990263,0.008330811518206329,12.006957068421366,21.500119276780996,0.008351317042472595
95.5,21.617984628208305,0.008326260689288078,12.00619199972011,21.501060816536935,0.008346842515976637
96.0,21.61426422107427,0.008322339908238368,12.005084691369213,21.502939144489957,0.008342313796043204
96.5,21.610422484591904,0.008319248340369685,12.004679267946512,21.50575308674624,0.008337731590275576
97.0,21.615499814403837,0.008316453816470771,12.006475859320597,21.50950088468347,0.00833309661463408
